time,acc_sp,vel,theta,vel_hat,theta_hat
0.0399999999999991,-2.68199111917706,0.744088554783329,5.29674394405859,0.744088554783329,5.29674394405859
0.0700000000000003,-2.59076303101906,0.636236503138116,7.27766963885637,1.47800553251254,7.00522542316522
0.100000000000001,-2.54360400406889,0.535827909383651,9.39476327496282,2.39261225374976,8.62674165365827
0.130000000000003,-2.52562440845653,0.443921041625325,11.543271845414,3.47380997673422,10.1446173273804
0.160000000000004,-2.52416304690519,0.360597658862201,13.6135622754619,4.70653796758497,11.5435086302513
0.189999999999998,-2.53004647953806,0.285092675637585,15.4905584299918,6.07525551317458,12.8095918143238
0.219999999999999,-2.5341694347187,0.215920491680069,17.0779467935946,7.56330455840765,13.9302397369904
0.25,-2.53094609195577,0.151342059773352,18.3150435470149,9.15315068388643,14.8946541232131
0.280000000000001,-2.51662630736522,0.0899296603237713,19.1816414083616,10.8264363343294,15.6939893861488
0.310000000000002,-2.49128121054164,0.0306441498529236,19.6905504973579,12.5641696117102,16.3214161723444
0.340000000000003,-2.45553040838062,-0.0273780656998548,19.8756385577409,14.3470896929279,16.7716959041751
0.369999999999997,-2.41065372630237,-0.0848157204180808,19.7924645351994,16.1553495154908,17.0410612945111
0.399999999999999,-2.35978167345123,-0.141972602139645,19.507598964383,17.9690276844291,17.1279110628664
0.43,-2.30693550543842,-0.198820495386168,19.0867747961015,19.7681550233821,17.0328328936929
0.460000000000001,-2.25562443014751,-0.255163900753887,18.5913214558086,21.5327145745999,16.7586034363807
0.490000000000002,-2.20776165263401,-0.310688868388451,18.079230681299,23.2428101819457,16.310125779213
0.520000000000003,-2.16200723315894,-0.365076454603562,17.5978835659351,24.8807254941661,15.6935141629741
0.550000000000004,-2.11574548949702,-0.418043521645171,17.1854372685504,26.428896471706,14.9166223051211
0.579999999999998,-2.07319736736051,-0.46930508068406,16.8749516205397,27.8706780606507,13.9889624751735
0.609999999999999,-2.03743118504422,-0.518517558448823,16.6906655792826,29.1908498539055,12.9215473480625
0.640000000000001,-2.00834842052882,-0.56544635693328,16.6414783390623,30.3756160911942,11.7268900041321
0.670000000000002,-1.98686172699178,-0.609914175194551,16.7228195871525,31.4126056590603,10.4190039291389
0.700000000000003,-1.97133022197463,-0.651786205229031,16.9201110106542,32.2911590381778,9.01305732365489
0.730000000000004,-1.95823350477078,-0.691008224085087,17.2131422872651,33.003100324376,7.52430425399932
0.759999999999998,-1.94226303971558,-0.72766418842339,17.5792257199416,33.5409544052113,5.96993334162825
0.789999999999999,-1.92495838979555,-0.761939262616371,17.9922948357397,33.8993347406598,4.36737963151918
0.82,-1.90986376065948,-0.793966698927292,18.419473932382,34.0751311263041,2.73410208642916
0.850000000000001,-1.8996924150188,-0.823882382399275,18.8171736869685,34.0675096933334,1.08758358689327
0.880000000000003,-1.89466937995801,-0.851930744749284,19.1333236058613,33.8779129085439,-0.554669068774976
0.910000000000004,-1.88715456650469,-0.878509515752848,19.3137541948746,33.5100595743385,-2.17512516448365
0.939999999999998,-1.8733258790864,-0.904079553776987,19.3038306374424,32.9690025600594,-3.75703649273316
0.969999999999999,-1.85337567684223,-0.929159040189016,19.0543889158273,32.2609543562084,-5.28404806601471
1,-1.82916622669361,-0.954329575898425,18.5232652912516,31.3949912876863,-6.73931094181113
1.03,-1.79964039097084,-0.980106851845745,17.6734592823792,30.3814557865665,-8.10745419423686
1.06,-1.7631173914458,-1.00687077524296,16.4766390989199,29.231927962977,-9.37461397729518
1.09,-1.71952143536374,-1.03488453746495,14.9264014896922,27.9592256051007,-10.5284335248782
1.12,-1.67195014237249,-1.06447916344119,13.0426354702167,26.5774041791752,-11.5580631507666
1.15,-1.623401043571,-1.09599840949518,10.8696865092535,25.1017715113904,-12.454165751505
1.18,-1.56901468610305,-1.12970176382421,8.47163316816987,23.5494388019238,-13.2087950685943
1.21,-1.50600054989131,-1.1656747532191,5.92148548927523,21.9376229807428,-13.8144653085365
1.24,-1.43214000616331,-1.20379457859196,3.29590828984056,20.2834248299074,-14.2653467195172
1.27,-1.34714160055209,-1.24383272458113,0.67108810367122,18.604264555552,-14.5576533739471
1.3,-1.25623795312488,-1.28551269736926,-1.87606908792663,16.9178817878861,-14.6896431684614
1.33,-1.16844736385381,-1.32841925233257,-4.27104596753964,15.2423355811938,-14.6616178239203
1.36,-1.09376385717083,-1.3720301701538,-6.45035992791017,13.5960044138332,-14.4759228854087
1.39,-1.03416429851345,-1.41584197669929,-8.36430659195886,11.9966353075519,-14.1367014059176
1.42,-0.979271311493307,-1.45933554210312,-9.97383159262511,10.457841493944,-13.6484506539634
1.45,-0.919437679571218,-1.50196547140336,-11.2490507209396,8.99607805742822,-13.0175096087359
1.48,-0.85568913486967,-1.54335687540746,-12.1691253381353,7.62677824639317,-12.2517249890229
1.51,-0.798367206678763,-1.58321776050983,-12.7166367884017,6.36363920982824,-11.3603128004526
1.54,-0.753958985704242,-1.62137721635939,-12.8826247778072,5.21862199732236,-10.3538583354926
1.57,-0.720719363722002,-1.65772484527932,-12.6798755047907,4.2019515590658,-9.24431617345128
1.6,-0.687095232153978,-1.69210820268997,-12.1445063575362,3.32211965765984,-8.04500360116677
1.63,-0.647148360128208,-1.72438163456287,-11.321728613592,2.58693525195043,-6.76916806106498
1.66,-0.603137670995393,-1.75454598482195,-10.259537528042,2.00374536247476,-5.4310585725437
1.69,-0.564789579583878,-1.78262397232449,-9.00766600453619,1.5777425102529,-4.04600713449597
1.72,-0.540133959409089,-1.80840814500714,-7.61157052417872,1.31207586408923,-2.62932775606223
1.75,-0.525599794642098,-1.8315911933947,-6.12471727035829,1.20785124057305,-1.19631645663232
1.78,-0.512329144177569,-1.85208519363231,-4.60676458265208,1.26413110407812,0.2377487341559
1.81,-0.495220485439683,-1.86998584018485,-3.11630823490873,1.4779345667628,1.65760777641614
1.84,-0.481461565010879,-1.88554069291182,-1.70363581779991,1.844435125227,3.04811474226111
1.87,-0.475476051244022,-1.89902378321757,-0.407489017346583,2.35902427092012,4.39498230799548
1.9,-0.473814289549329,-1.91067574232766,0.741939783947637,3.01484498204049,5.68370161816647
1.93,-0.47274477892666,-1.92066182061863,1.72137720020881,3.8034060928814,6.90067501156792
1.96,-0.467341288606397,-1.92912408919358,2.51723222556491,4.71504559691303,8.03351807993937
1.99,-0.459348726656467,-1.93621038019957,3.12282127638768,5.73893064678233,9.07105966796577
2.02,-0.454845353381065,-1.94216028865449,3.54244067764511,6.86305755431301,10.0033418732774
2.05,-0.451975817485855,-1.94705377565686,3.80156101347773,8.07470184442843,10.8218269776337
2.08,-0.445878812518742,-1.95080355375824,3.94479842708922,9.35983244691764,11.5184691343644
2.11,-0.438245132529902,-1.9532599096082,4.01986780736422,10.7033778332347,12.0861678731787
2.14,-0.435337013482489,-1.95427143205163,4.06893253511428,12.0901824132617,12.5196004864401
2.17,-0.442288848374974,-1.95389599442654,4.12850460482438,13.5050078409603,12.8152229910664
2.2,-0.453194102867387,-1.95249762915401,4.23366830715196,14.9325330143721,12.9712701285292
2.23,-0.456317795750713,-1.95045785670125,4.4162897076002,16.3573540756183,12.9877553648544
2.26,-0.451548138188118,-1.94786604498319,4.70421108298276,17.7641854126665,12.8663758668753
2.29,-0.449068158966442,-1.9446418869155,5.1119805796284,19.1389303928325,12.6093797648325
2.32,-0.45327301162692,-1.9408190803779,5.64200626670796,20.4661818323008,12.2203232347457
2.35,-0.461162717766229,-1.93642144672552,6.28899792086506,21.7312802547488,11.7042385624817
2.38,-0.467690174781403,-1.93131065614853,7.0362584679519,22.9208108374971,11.0675137401963
2.41,-0.475056302042227,-1.9253810584002,7.85379785722395,24.0226034115094,10.3178924663337
2.44,-0.484475026644251,-1.91858565024461,8.70621709083857,25.0257324613922,9.46447414562672
2.47,-0.496436052876931,-1.91076024733808,9.55873013943195,25.920517125396,8.51771388909638
2.5,-0.508371685994436,-1.90172609263956,10.3777168554122,26.6986534013376,7.48899667476271
2.53,-0.521407101462861,-1.89160469324881,11.1226441381893,27.3528436184139,6.38928702793689
2.56,-0.538597644496361,-1.88078504277096,11.7464672018302,27.8760406053215,5.23130186720499
2.59,-0.559243240993233,-1.86963485082581,12.2042061823953,28.262983688833,4.02809062909387
2.62,-0.57758606749094,-1.858286997866,12.4548118108375,28.5103141881101,2.79284268877921
2.65,-0.589485377281053,-1.84670761022653,12.4637011712673,28.6165754147035,1.53888736008433
2.68,-0.595313104558254,-1.83494210997352,12.207050742993,28.582212672553,0.279693895481953
2.71,-0.595654006089135,-1.82334078525898,11.6716136216331,28.4095731568219,-0.971128716608596
2.74,-0.593532406446472,-1.81251167297562,10.8511165107563,28.1020375032187,-2.20079287935512
2.77,-0.590364754619418,-1.80299351169927,9.74020770578928,27.6634555786913,-3.39623445893134
2.8,-0.584886229909597,-1.79516562509257,8.34379967942652,27.0992606548278,-4.5442151129865
2.83,-0.574709586522798,-1.78935601856409,6.68758259762721,26.41621827272,-5.63256816521738
2.86,-0.555890893958126,-1.78587898088981,4.82131899285175,25.622426242963,-6.65019860536923
2.89,-0.530298533039796,-1.78493284014445,2.81355962979707,24.7273146456557,-7.58708308923428
2.92,-0.502502284267497,-1.78649646527622,0.737539915036676,23.7416458304006,-8.43426993865275
2.95,-0.474902540905245,-1.79054726430545,-1.34267313138017,22.6775040513467,-9.18388235720982
2.98,-0.443700967191677,-1.79698122214784,-3.37057634589478,21.5470717849926,-9.82913623852823
3.01,-0.403317532016719,-1.80546926773992,-5.29166632072454,20.362708526456,-10.3635763633635
3.04,-0.357199787512552,-1.81540590133046,-7.0518014361807,19.137427913524,-10.7819307100807
3.07,-0.308754949371638,-1.82621919313028,-8.60501924299234,17.884440931201,-11.0804871004505
3.1,-0.26342326234167,-1.8375166289717,-9.91733510617278,16.6171559117074,-11.2570931996496
3.13,-0.222334528482235,-1.84896914408899,-10.9683742275061,15.34917853448,-11.3111565162608
3.16,-0.189784766516311,-1.86031477367715,-11.7566955186781,14.0943118261718,-11.2436444022727
3.19,-0.165778307731377,-1.87126527964249,-12.2907767112784,12.8659737529009,-11.05690384672
3.22,-0.148502579782478,-1.88157393650902,-12.5788161141681,11.6754088436956,-10.7536334911763
3.25,-0.134380496366174,-1.89116281805002,-12.6261568092896,10.5355369149021,-10.3378759818017
3.28,-0.116975749641657,-1.90000793381015,-12.4398364822241,9.45851528457231,-9.81487561686852
3.31,-0.0964497233995506,-1.90802348767033,-12.0440795833647,8.45536444307126,-9.19100034627002
3.34,-0.0764407800530645,-1.91510499371594,-11.4755119987503,7.53596805307687,-8.47374177152007
3.37,-0.0619979963420561,-1.92123839298587,-10.7727017564449,6.70907294958019,-7.6717151457534
3.4,-0.0555054661112256,-1.92649701934594,-9.97483237749401,5.98228913988466,-6.79465937372488
3.43,-0.0533204903532583,-1.93094063865839,-9.12196639048929,5.36184091849111,-5.8525934273822
3.46,-0.0498010562727721,-1.93454347278011,-8.2526166342524,4.85344705505573,-4.85577776349996
3.49,-0.043986940995769,-1.93719102571199,-7.3982786791846,4.46220144093815,-3.8157045257512
3.52,-0.0380686837857423,-1.93877644780838,-6.58170466022431,4.19161354567702,-2.74393909962867
3.55,-0.0369322521149131,-1.93939109476597,-5.81995876896009,4.04360362705552,-1.65211155301462
3.58,-0.0394893816560279,-1.93917864799573,-5.1234994948414,4.01850273110137,-0.551916636181103
3.61,-0.0431922798265839,-1.93833269873462,-4.49903752455063,4.11505269208686,0.544886218211124
3.64,-0.0451095162695483,-1.93704855305187,-3.95017609754015,4.33045132987715,1.62653380053855
3.67,-0.0444069239899767,-1.93533801161764,-3.47625798820148,4.66150343081208,2.68212547880327
3.7,-0.040610130327207,-1.93318520840307,-3.07185062485579,5.10408442032587,3.70015018313413
3.73,-0.0369351307597096,-1.93054823828325,-2.72509251606607,5.65273672561236,4.66955628899024
3.76,-0.0370507755782836,-1.92735517578434,-2.41989613705031,6.30086374616101,5.58025058458364
3.79,-0.0395851678461504,-1.92363054017348,-2.13516953858059,7.0407298537561,6.42309827087792
3.82,-0.0445170719134994,-1.91942348613632,-1.84229305889186,7.86346039247722,7.18992296158912
3.85,-0.0512223183624963,-1.9147017848215,-1.51382357746021,8.75904167869918,7.87350668318556
3.88,-0.0557568534607341,-1.90928849538847,-1.12190815352923,9.71692155344063,8.46763654063431
3.91,-0.0562410855883497,-1.9029663173728,-0.637384357488186,10.7270415787887,8.96666940628343
3.94,-0.0598014753029181,-1.89563288014869,-0.0345290625763348,11.7777034625261,9.36553112328227
3.97,-0.0734401470425124,-1.88727271070829,0.7030760778319,12.8570765342382,9.6604873029946
4,-0.094778401790642,-1.87788969688955,1.5744663232131,13.9533083353146,9.84917125863465
4.03,-0.117808984468884,-1.86737148046983,2.56528785831588,15.0545246189504,9.93058400526751
4.06,-0.141491103349818,-1.85557852050712,3.65232718656487,16.1488293501457,9.90509425980902
4.09,-0.16477949522418,-1.842471427229,4.80136366235272,17.2243148390701,9.77443284072487
4.12,-0.189206016731714,-1.8280862170561,5.97032215032435,18.2698986415755,9.54095444141669
4.15,-0.217549656632367,-1.81261854350491,7.11457168072818,19.2741719470794,9.20774704995233
4.18,-0.246414845036326,-1.79636636031713,8.19224668803274,20.2260392270201,8.77911769330828
4.21,-0.272082698598432,-1.77961421895641,9.16397269057205,21.1155159117679,8.26034285845463
4.24,-0.29207739432348,-1.76264272410852,9.99207767472528,21.9337283906245,7.65766849235511
4.27,-0.31203252655667,-1.74572352085103,10.6436484427819,22.6729140118236,6.9783100019671
4.3,-0.332612821226286,-1.72912657397997,11.0901013072392,23.3264210825302,6.23045225424159
4.33,-0.355800249206896,-1.71311507801064,11.30655464178,23.888609230217,5.42305448860531
4.36,-0.377773797546441,-1.69782818521052,11.273912856373,24.3538061592259,4.56473802920264
4.39,-0.395854512053058,-1.68331288626538,10.980924355342,24.7172025847613,3.66537756014663
4.42,-0.405981031043175,-1.6696986462955,10.4286043889763,24.9754279478418,2.735125303026
4.45,-0.405195840436957,-1.65719674197361,9.6266965023281,25.1265056559569,1.78416888118292
4.48,-0.399017595636113,-1.64606734315256,8.59225264684873,25.1698530830671,0.82273131971327
4.51,-0.392501893932753,-1.63664572166355,7.35100895637254,25.1062815696035,-0.1389289545343
4.54,-0.386671698120163,-1.62917021249904,5.94046364474306,24.9379964224681,-1.09051811295698
4.57,-0.375011857326963,-1.62375259358486,4.40623141534539,24.6679388529793,-2.02219417572576
4.6,-0.351330035649086,-1.62053174630781,2.79933453294663,24.2994368993751,-2.92429527497338
4.63,-0.318676163850668,-1.61956004499363,1.17493040261628,23.8374381013395,-3.78685541113433
4.66,-0.290316552889781,-1.62067839770052,-0.413463694068983,23.2876538620432,-4.60074995742635
4.69,-0.274332250440761,-1.62361297676203,-1.91846765164909,22.6565447470071,-5.35771010122016
4.72,-0.265019171066538,-1.6279498969011,-3.30113958662862,21.9513204841015,-6.05032284404014
4.75,-0.250032269114179,-1.63322897197971,-4.53317773670222,21.1799399635471,-6.67203100156323
4.78,-0.223188120459028,-1.63910031089116,-5.59766760163995,20.3511205862168,-7.21713618245557
4.81,-0.185601169281318,-1.64531036067513,-6.48534814645291,19.4748436128263,-7.68075746516613
4.84,-0.147743976118026,-1.65171907844788,-7.1931697271485,18.5612350193195,-8.05827956045115
4.87,-0.119998436731907,-1.65822855637337,-7.72594651966872,17.6201536331562,-8.34602970368181
4.9,-0.103314860554546,-1.66468731887697,-8.09549645373949,16.6614928314641,-8.54152076397909
4.93,-0.0962076219866226,-1.67097578373797,-8.31779437396522,15.6951805410402,-8.64345124421324
4.96,-0.0959465516319575,-1.67701774166109,-8.41003827440167,14.73117923835,-8.65170528100419
4.99,-0.101710795460763,-1.68272950770141,-8.39109826716747,13.7794859495275,-8.56735264472137
5.02,-0.109035186002208,-1.68801165394559,-8.28000717414881,12.8498623979054,-8.39250604217552
5.05,-0.109118723255255,-1.69280741924985,-8.09783150541895,11.9514504341819,-8.12949648218621
5.08,-0.0973184025118477,-1.69713956176872,-7.86476134609313,11.0946882128042,-7.78174961425548
5.11,-0.0750606309473743,-1.70098174165598,-7.60197755740002,10.2891426161311,-7.35360101906063
5.14,-0.0533505242859903,-1.70428267387972,-7.33207394571417,9.54324485561833,-6.85021744089988
5.17,-0.0420826583807441,-1.7070976182946,-7.07193186450908,8.86429047181734,-6.27759678769206
5.2,-0.0421416255913049,-1.70958561433577,-6.8296243379701,8.25843933437578,-5.64256813097671
5.23,-0.0462794208539542,-1.71195982578867,-6.60554541698332,7.73071570219632,-4.95279116696027
5.26,-0.0455183128842061,-1.71431301643093,-6.39748937800804,7.28548668990417,-4.21594534169681
5.29,-0.0366585341183313,-1.71658600704666,-6.20410054132316,6.92741428111913,-3.44018405992184
5.32,-0.0241970672240603,-1.7187305982597,-6.02176143748186,6.66016850006759,-2.63440217617977
5.35,-0.0157590627739713,-1.72068479022816,-5.84237150890597,6.48614125321024,-1.80751726070012
5.38,-0.0106881072310338,-1.72232567696387,-5.65609883061769,6.40644632924209,-0.968469599397463
5.41,-0.00861110279349329,-1.72355533166382,-5.45068321678952,6.42091939909247,-0.126222193871472
5.44,-0.0114546130132433,-1.72437792302575,-5.20955354318601,6.52811801592499,0.710239238592922
5.47,-0.0141373599212457,-1.72484650366935,-4.91356474383231,6.72541731808657,1.53199495959229
5.5,-0.0112022882019656,-1.72484893330864,-4.54373553765825,7.01021442426284,2.33080723105673
5.53,-0.00602517277482848,-1.72414369284497,-4.08411783978011,7.37894530820558,3.09790839973552
5.56,-0.00703773582478023,-1.72251731433251,-3.52065146274446,7.82703431624486,3.82500870620223
5.59,-0.0160526064489279,-1.71983327460398,-2.84260096611382,8.34907704156462,4.50457820354395
5.62,-0.0269277231378038,-1.71620776648162,-2.04511822168464,8.93884032420261,5.12984675736116
5.65,-0.0349707089822695,-1.71177623401147,-1.13039682421212,9.58926225105087,5.6948040457683
5.68,-0.0483942665638713,-1.70636777396441,-0.112192771123375,10.2924521558549,6.19419955939291
5.71,-0.072270714111151,-1.69970308986987,0.984039195017677,11.0399827382305,6.62356726350158
5.74,-0.0989300906078309,-1.69156622956243,2.12811204558152,11.8236385026788,6.97886805481048
5.77,-0.123844166641669,-1.68184298310474,3.2898027415992,12.6345729022718,7.25653611462493
5.8,-0.146313717926475,-1.67052059712471,4.44058218310837,13.4638399808943,7.45403228519503
5.83,-0.168921888377475,-1.65769917664082,5.55109492392085,14.3024371863493,7.56986210580388
5.86,-0.19721947237017,-1.64365159211238,6.59382721210361,15.1413053703592,7.60357581276769
5.89,-0.231238170354447,-1.62869053385295,7.54058899829987,15.9713287885643,7.55576833943556
5.92,-0.268658301770104,-1.61301290387505,8.35898534785651,16.7833360917552,7.42807694406016
5.95,-0.303985383583932,-1.59682341932331,9.01886709147626,17.5684105907602,7.22261765554979
5.98,-0.335262907061735,-1.58056500156725,9.4961575896016,18.3182589578229,6.94204840789151
6.01,-0.35963550041274,-1.56483100044759,9.77234159829054,19.0251827809269,6.58996446046113
6.04,-0.375332831612125,-1.55006885122909,9.83766602027117,19.6821634943512,6.17066563622478
6.07,-0.38488436732086,-1.53652305529447,9.69234177628206,20.2828623786711,5.68915632173865
6.1,-0.387780309765633,-1.52428174676307,9.34632258191674,20.8216205607581,5.15114546714906
6.13,-0.387804644852022,-1.51332760960341,8.8166394217626,21.2934590137799,4.56304658619248
6.16,-0.387631034937098,-1.50369168519428,8.12533827821846,21.6941582869073,3.93178330968337
6.19,-0.387851129515108,-1.49545521665616,7.30086670898649,22.0201079557268,3.26408965082971
6.22,-0.389855679778232,-1.48868194785498,6.3734962410248,22.2677665936167,2.56765574664727
6.25,-0.391955325351216,-1.48340002835526,5.37625169720976,22.4346678172949,1.85029993089003
6.28,-0.390814212525018,-1.47949545061943,4.34635942427013,22.5195126119739,1.11984043302463
