time,acc_sp,vel,theta,vel_hat,theta_hat
0.0300000000000011,-2.71784973254043,0.780814279673522,4.65544074824311,0.780814279673522,4.65544074824311
0.0600000000000023,-2.61027389245032,0.67063710500292,6.57935033569004,1.43014684148739,6.27902223473187
0.0900000000000034,-2.55174130815653,0.567435299408486,8.67430824518955,2.2516630462591,7.82416042342418
0.120000000000005,-2.5273293958936,0.472613129333959,10.8356733345098,3.23293407961844,9.27493930997401
0.150000000000006,-2.52221443358239,0.386536866208039,12.9584688672229,4.36100766882919,10.6166293621729
0.18,-2.52806027355079,0.308719244170525,14.92374909194,5.62031176218467,11.835810995754
0.210000000000001,-2.53401889151258,0.23783953857169,16.6241771060957,6.99521258750532,12.9203809480851
0.240000000000002,-2.53447052113093,0.17208239789681,17.9854861685927,8.46928368425989,13.8599440480313
0.270000000000003,-2.52389723360544,0.109861383526422,18.9741583038595,10.025489441608,14.6459249259546
0.300000000000004,-2.50208445488478,0.0500662139184561,19.596607617366,11.6462330649511,15.2713016347755
0.330000000000005,-2.46967472185535,-0.00819997827815537,19.8784362573417,13.3135219454637,15.730345835863
0.359999999999999,-2.42724178143116,-0.0657342405432536,19.8700431585393,15.0089366414518,16.0193596242806
0.390000000000001,-2.37747761604478,-0.122978680167749,19.6373072885196,16.7136272752585,16.1367115265303
0.420000000000002,-2.32438978826414,-0.179960446083451,19.2481823161095,18.4083135332617,16.0828365005516
0.450000000000003,-2.27202693978698,-0.236540593991615,18.7639597560852,20.0738529937254,15.8601248285909
0.480000000000004,-2.22281941086857,-0.292410514278442,18.2460448552553,21.6929030146962,15.4722630318307
0.510000000000005,-2.17764613616488,-0.347245576608481,17.7456023333863,23.2476040823993,14.924549082261
0.540000000000006,-2.13072942714704,-0.400738210593734,17.3024460310326,24.7210826940666,14.2239303899009
0.57,-2.08577761419699,-0.452654143748043,16.9514197435859,26.0976212112137,13.3789859310215
0.600000000000001,-2.04803687368756,-0.502606954556104,16.7220153744474,27.3626578596412,12.3999262481445
0.630000000000003,-2.01621980775754,-0.550338766234272,16.627965988953,28.5027867294328,11.2985934500444
0.660000000000004,-1.99260564607138,-0.595661538331305,16.6685030392811,29.5059179297856,10.0882987493095
0.690000000000005,-1.97537388883259,-0.638419448921052,16.8314526828954,30.3625385820508,8.78226716882065
0.720000000000006,-1.96324288825871,-0.678519717844997,17.097427666172,31.0634326674228,7.39554520589788
0.75,-1.94821473779492,-0.715985236565266,17.4445715294514,31.6011185730589,5.94387867525037
0.780000000000001,-1.93035964355688,-0.751022092139646,17.848534100922,31.9703347823677,4.44326682811038
0.810000000000002,-1.91415588227287,-0.783773603569827,18.2798163053752,32.1680398750082,2.90996235223524
0.840000000000003,-1.9012795174327,-0.814352889642227,18.6987891863958,32.1934125268904,1.36047137190598
0.870000000000005,-1.89651821019101,-0.842941367913377,19.0539426881138,32.0478515101754,-0.18844655207233
0.900000000000006,-1.89097171949201,-0.869909498421104,19.2920854413564,31.7343817024996,-1.72056777347068
0.93,-1.87952026053003,-0.895709550416335,19.3570917019108,31.2564620062756,-3.22012699850745
0.960000000000001,-1.86093711619913,-0.920819560498295,19.1973085085056,30.6197308691436,-4.67030933815602
0.990000000000002,-1.83825279812843,-0.945837999570464,18.7685497304708,29.8315903101458,-6.0555205911833
1.02,-1.81099308382398,-0.971312728554352,18.0326964128129,28.9011771646354,-7.36145181612625
1.05,-1.77693500526455,-0.997695098428539,16.9549850215114,27.8393630842772,-8.57507933129159
1.08000000000001,-1.73548216380828,-1.02522212887181,15.5199472537365,26.6587545370475,-9.68466471475573
1.11,-1.68759997847465,-1.05420935465123,13.7393099616034,25.3736928072341,-10.6797548043646
1.14,-1.64065047016814,-1.08501878102111,11.6492864874427,23.9985197495648,-11.5512403998751
1.17,-1.58890219037669,-1.11795766644333,9.31048655287445,22.5464527829559,-12.290730165809
1.2,-1.52923967755575,-1.15318995858597,6.79392639876001,21.0352777390353,-12.8907182014893
1.23,-1.45952229456239,-1.19064434248539,4.17660367030497,19.4824272906315,-13.3455977780612
1.26000000000001,-1.37737542936512,-1.23009505080511,1.53451752891113,17.9047265250908,-13.6516897946437
1.29,-1.28667394292604,-1.27130807213316,-1.05577074680854,16.3183929442778,-13.8072427783296
1.32,-1.1953659735226,-1.31392194784144,-3.51666577016156,14.7390364645739,-13.812432884185
1.35,-1.11461014451623,-1.35741386131484,-5.77980636229621,13.1817295369404,-13.6693344044505
1.38,-1.05207128248001,-1.40126278783174,-7.79146705913842,11.6634659318248,-13.3807249127235
1.41,-0.998350330580301,-1.4450003544344,-9.50998565759999,10.2006824866788,-12.9505771930819
1.44,-0.941113273319302,-1.48800591744057,-10.9015234626755,8.80805841022216,-12.3845497711832
1.47000000000001,-0.876086492075036,-1.52988457932895,-11.9441052374677,7.49926226772279,-11.6897050157458
1.5,-0.81489442045894,-1.57030146756449,-12.6191655394705,6.28695198099653,-10.8745091385489
1.53,-0.765312779118402,-1.60905034640052,-12.9115792862642,5.18277482840631,-9.94883219443244
1.56,-0.731251398875914,-1.64603095627714,-12.824715760893,4.19736744486374,-8.92394808129757
1.59,-0.699655293414168,-1.6811126232837,-12.3901949925858,3.33979070660879,-7.81208390356622
1.62,-0.661975109633588,-1.71409936150253,-11.6531290874368,2.61674658220205,-6.62522746402221
1.65000000000001,-0.617494861117438,-1.74494618068355,-10.6589276659023,2.03556905120933,-5.37714735889781
1.68,-0.574423290751302,-1.77374559309875,-9.46075725232148,1.60173876341303,-4.08190981341305
1.71,-0.545522157249022,-1.80038073077598,-8.10148350896529,1.31864341277933,-2.75371398721855
1.74,-0.529357563729219,-1.82446297346946,-6.63174455460522,1.18757773745885,-1.40689197439742
1.77,-0.518084256467854,-1.84584763324518,-5.11066270186407,1.20774351978617,-0.0559088034639998
1.8,-0.500818919596996,-1.86456031440657,-3.59896834422774,1.37624961073082,1.28463757698483
1.83000000000001,-0.484023617125054,-1.88083689174143,-2.15098801627037,1.68973105788764,2.60073214437672
1.86000000000001,-0.476337460782527,-1.8949482952526,-0.808931420858685,2.14419589795526,3.87839843052198
1.89,-0.473753232167009,-1.90717475914752,0.395395789678477,2.73330925543569,5.10380900123994
1.92,-0.473936404313969,-1.91767770868795,1.43502777248613,3.44944664534619,6.26419324028613
1.95,-0.470361528152038,-1.92663004447998,2.2940760556543,4.28369397321848,7.34783734935061
1.98,-0.461300809515114,-1.93411217862078,2.96354456538607,5.22584753509927,8.34408434805908
2.01000000000001,-0.455444560939175,-1.94040678335715,3.4413746983909,6.26449157241495,9.24338420303189
2.04,-0.453646938264841,-1.94566729924918,3.74457263615346,7.38781524738897,10.0373144311312
2.07,-0.448633575927882,-1.94982672847223,3.91553776812614,8.58288998457075,10.7176425668368
2.1,-0.44036928570046,-1.95275720433026,4.00331974501538,9.83617854710436,11.2775587969971
2.13,-0.433996826188788,-1.95426532016406,4.0529639320619,11.1337371832427,11.7119108129904
2.16,-0.438017388069894,-1.95428365582677,4.10086974121905,12.4612156263474,12.0172038107253
2.19,-0.450831768985133,-1.95312067162608,4.18377433203509,13.8038570948886,12.1916004906403
2.22000000000001,-0.457918770631889,-1.95125154420988,4.33345625738579,15.1464982924451,12.234921057704
2.25,-0.45311584598836,-1.948870481684,4.58195660802903,16.4752632104724,12.148203893978
2.28,-0.448412722587635,-1.94585717158159,4.94872003289035,17.7765605891249,11.9330882740625
2.31,-0.450379031724059,-1.94221131758332,5.43850167310465,19.0355668219182,11.5926387553334
2.34,-0.459060971432644,-1.93803460596705,6.04901545391476,20.2385508391251,11.131279906241
2.37,-0.465366210433403,-1.93319512824247,6.76896285476584,21.3728799129307,10.5547955161268
2.40000000000001,-0.472338103477404,-1.92754171196064,7.57084969432421,22.4270196574319,9.87032859522391
2.43,-0.480492699171872,-1.9210597512793,8.41969418302344,23.3905340286376,9.08638137465717
2.46,-0.492439681589011,-1.91363744817523,9.27926290646902,24.2540853244693,8.21281530644226
2.49,-0.504428795452775,-1.90500584566376,10.117664605358,25.0097204896571,7.25984829928745
2.52,-0.51625746707776,-1.89516658659117,10.8978213555207,25.6498445359305,6.23775522516812
2.55,-0.531706370233065,-1.88448090656408,11.5722897035267,26.1674242942816,5.15839671291725
2.58000000000001,-0.552380193022958,-1.87339331518472,12.0948221984374,26.5572662354389,4.03386664398387
2.61,-0.572969336933783,-1.862117922108,12.422974150311,26.81602585505,2.87647608060199
2.64,-0.586819528605255,-1.85062514938199,12.5184871318903,26.9422076736817,1.69875326578939
2.67,-0.594817074632648,-1.83887253191562,12.3541292500212,26.9361652368195,0.513443623349354
2.7,-0.596305164409463,-1.8270812660893,11.9128937289366,26.7999753496268,-0.666624735909429
2.73,-0.594351689448476,-1.81585982359832,11.1890534070258,26.5357781642299,-1.82960881183268
2.76000000000001,-0.591893840442461,-1.8058153717302,10.175242718217,26.1472095353591,-2.96260664838243
2.79,-0.587306582973331,-1.79734979163743,8.87013768093372,25.6393599517942,-4.05318693950555
2.82,-0.58004552378213,-1.79079729200286,7.29112367641277,25.0184772983729,-5.08987596324885
2.85,-0.564037712004127,-1.78647347168655,5.48050044005558,24.2919668559912,-6.06215758175743
2.88,-0.539597257866118,-1.78468999929631,3.50295609844358,23.4683913016036,-6.96047324127584
2.91,-0.511701083387145,-1.78541852184073,1.43476669250356,22.5574707082227,-7.77622197214771
2.94,-0.484104686028195,-1.78865235214719,-0.656913639897563,21.5700057798651,-8.50177481097279
2.97000000000001,-0.456498250659331,-1.79433708862198,-2.71419211434582,20.516690164439,-9.13038624922426
3,-0.418106400256365,-1.80226948919958,-4.68334480899269,19.4096337720333,-9.65563250054142
3.03,-0.373739795537414,-1.8118688248206,-6.50830934418865,18.2615067672276,-10.072354825465
3.06,-0.324119771462817,-1.82248005435018,-8.13878562016514,17.0850397340908,-10.3768611927776
3.09,-0.27802530518927,-1.83369747069048,-9.53748648864702,15.8930236761794,-10.5669262795044
3.12,-0.234219176646463,-1.84515494553413,-10.6770323412245,14.6983100165385,-10.6417914709128
3.15000000000001,-0.198565232153771,-1.85659754119872,-11.5510580000694,13.5138105977013,-10.6021648605126
3.18,-0.172223835241392,-1.867749238634,-12.1679705558955,12.3515376698166,-10.4499062274737
3.21,-0.152887252711344,-1.87829736165947,-12.5363890220445,11.2223800479939,-10.1872669520943
3.24,-0.139733233924743,-1.88812708620813,-12.6636702984153,10.1387087427087,-9.81780819200025
3.27,-0.123675021249032,-1.89723428173381,-12.5511298310383,9.11198478605369,-9.34620953260234
3.3,-0.103577206426902,-1.90555523796282,-12.2172497845957,8.15267246627742,-8.77825158992191
3.33000000000001,-0.0821947573448429,-1.91295998708534,-11.6977391809027,7.27023932778402,-8.12081601059112
3.36,-0.0649328254695077,-1.91939500697712,-11.0310576344456,6.47315617113351,-7.38188547185306
3.39,-0.0561283380871549,-1.92492516500336,-10.2559900004431,5.76889705304103,-6.57054368156106
3.42,-0.0542597221593697,-1.9296407280311,-9.41251713159559,5.16350752620268,-5.69603709346783
3.45,-0.0514420267410345,-1.93354045991295,-8.54086490827648,4.66255809682022,-4.76791594917612
3.48,-0.0465191153362432,-1.93654949851442,-7.67612008620407,4.27111702343715,-3.79688037106646
3.51000000000001,-0.0389225923148226,-1.93847408010713,-6.8425958651455,3.99274472758645,-2.79373139484919
3.54,-0.0363608667275837,-1.93938118321088,-6.05992225038196,3.82949226439848,-1.76936880897579
3.57,-0.0380750228895723,-1.93941091787616,-5.34003180611672,3.78190132260093,-0.734791154637882
3.6,-0.0423180991889394,-1.93871410823487,-4.69043487229065,3.84900422451896,0.29890427423124
3.63,-0.0449406411018725,-1.93756987973411,-4.11624282907048,4.02839213454798,1.32061666291268
3.66,-0.0454472666048983,-1.93600589968739,-3.6180426344794,4.31734022740324,2.32003220447738
3.69,-0.0423262387601316,-1.93400223547815,-3.19268869564555,4.71221141215586,3.28617522700159
3.72000000000001,-0.0371779134613587,-1.93155115425289,-2.83017448327622,5.20812930491178,4.20857381827427
3.75,-0.0364495653564116,-1.92854240634397,-2.51492858164554,5.79910680060021,5.07762940362659
3.78,-0.0382531960220285,-1.92498071466508,-2.22983124785979,6.47804607297423,5.88461674593273
3.81,-0.0422491114943957,-1.9209301911903,-1.94584612002212,7.23673857460993,6.62168394560865
3.84,-0.0490529927517083,-1.91641007602838,-1.63518693663125,8.06586503690698,7.28185244061294
3.87,-0.0555609695840723,-1.91128520240774,-1.27109685911803,8.95580883997711,7.8590753213785
3.90000000000001,-0.0561486212140579,-1.90529508134991,-0.823530742351482,9.89718626253052,8.34778161248904
3.93,-0.0564260143369333,-1.89830878941859,-0.265091587761596,10.8787582509419,8.74298641615555
3.96,-0.0665523972348901,-1.8902810616089,0.426595987794352,11.8893060433154,9.04097700899738
3.99,-0.087215646657762,-1.88125600890708,1.25603625790719,12.9177038148087,9.23932781268166
4.02,-0.109903912056407,-1.87115707285449,2.21132645382515,13.9529186776341,9.33690039392372
4.05,-0.133619129293843,-1.8598002957005,3.2732106672976,14.9840106810586,9.33384346448697
4.08000000000001,-0.157235051461773,-1.84713497012036,4.41056022509969,16.000128542133,9.23157192015313
4.11000000000001,-0.179868382749,-1.83314434144627,5.58297053685906,16.9902713386372,9.03199389027757
4.14,-0.207881284697162,-1.81796996827574,6.74502537725576,17.9435418418388,8.73782400116914
4.17,-0.236886400502784,-1.80191569396324,7.85366428767326,18.8498035487636,8.35288813212611
4.2,-0.265471734103419,-1.78526769302491,8.86941148875191,19.6997176216341,7.88195363749631
4.23,-0.28530462758846,-1.76830727081941,9.75309509421237,20.4847428878707,7.33072934667692
4.26000000000001,-0.305622927793524,-1.75131363068672,10.4700428357511,21.1971358400913,6.70586556411454
4.29,-0.324851724082963,-1.73454330117964,10.9908596568432,21.8299506361113,6.0149540693053
4.32,-0.348135015512921,-1.71829311958064,11.2885846080309,22.3771738008047,5.26627669461791
4.35,-0.37113071659485,-1.70275899487064,11.3424947092782,22.8338975459881,4.46786174320473
4.38,-0.391059959449625,-1.68796656589027,11.1367491505625,23.1954551117736,3.62893998657576
4.41,-0.405443617259921,-1.67400552701561,10.6692747649007,23.4584182257717,2.75897057966357
4.44,-0.407055858609679,-1.66108488485527,9.94726363712736,23.6207093957639,1.86748473720442
4.47000000000001,-0.40147580409151,-1.64942045621028,8.98556223272924,23.6816019097031,0.964085733738274
4.5,-0.394101178725315,-1.63936111703712,7.80563347508682,23.6417198357128,0.0584489036089773
4.53,-0.389303324347629,-1.63121493091639,6.44175991894361,23.5030380220877,-0.839678359036562
4.56,-0.381408445665227,-1.62508077566434,4.93787109634158,23.2680363241658,-1.72106809182192
4.59,-0.362218680650427,-1.6210962294259,3.34295205335262,22.9395946696969,-2.57647126077922
4.62,-0.329552745646398,-1.61940278007163,1.71209949213425,22.5221022836033,-3.39642753940852
4.65000000000001,-0.296923000259205,-1.61987457483763,0.100592223579983,22.0207186208876,-4.17226015752213
4.68,-0.277103658150934,-1.62228604342629,-1.44157552936691,21.4413713780734,-4.89607779665447
4.71,-0.268789435020412,-1.62626684343353,-2.87225189621379,20.790756493205,-5.56077459006274
4.74,-0.257478643158786,-1.63131600383624,-4.15891496745858,20.0763381458478,-6.16003012272587
4.77,-0.23513952102496,-1.63705490826663,-5.28170327518976,19.3063519366636,-6.68831154538632
4.8,-0.199285319327157,-1.64319111614021,-6.22959625454055,18.489999457258,-7.14086089161682
4.83000000000001,-0.15823286918963,-1.64954884974496,-6.99685193027782,17.636660595009,-7.51316707454005
4.86000000000001,-0.126766189974812,-1.65605953585373,-7.58580532089001,16.7555880368833,-7.80158100823529
4.89,-0.106462930246082,-1.66256659741266,-8.00622891722645,15.8560771461015,-8.00356905064942
4.92,-0.0970187211714752,-1.66892876180561,-8.27403152676556,14.9474659621373,-8.11771300359703
4.95,-0.0945854236169201,-1.6750698276027,-8.40532006836451,14.0391352007192,-8.1437101127602
4.98,-0.09866880766204,-1.68091356977788,-8.41947468647587,13.1405082538289,-8.08237306768869
5.01000000000001,-0.107794771058206,-1.68636138354849,-8.33434542855059,12.2607647782459,-7.93550143753112
5.04,-0.111516015890205,-1.6913121947398,-8.17133066534524,11.4084059589265,-7.70511667403383
5.07,-0.104324137985352,-1.69579786826994,-7.95083318556647,10.5933753373373,-7.39425168421462
5.1,-0.0833069315648323,-1.69982294876627,-7.69261766714639,9.82483267196494,-7.00680808193489
5.13,-0.0585680297124567,-1.7032993274354,-7.42069733790721,9.11087326270969,-6.54748564830017
5.16,-0.04291551343306,-1.70624936676837,-7.15482716132804,8.45852795088592,-6.02178233166023
5.19,-0.0404169482761152,-1.70879412134706,-6.90614127087112,7.87376311922186,-5.43599424760903
5.22000000000001,-0.0455909802216839,-1.7111686003132,-6.67659047216801,7.36148069185973,-4.79721567898476
5.25,-0.0476563021184943,-1.71354227673963,-6.46345530661377,6.92586293180169,-4.11265113652335
5.28,-0.0412423344156265,-1.71585449581355,-6.26555752079654,6.57145196228877,-3.38981038256628
5.31,-0.0274909335237385,-1.71804902951288,-6.08118658237637,6.30197273402324,-2.63701060598242
5.34,-0.0176093346247026,-1.72009373575335,-5.90291114769279,6.11992394886123,-1.86260755043324
5.37,-0.0120585190725079,-1.72186689917777,-5.72129223133227,6.02657806004271,-1.07499470597562
5.40000000000001,-0.00794728354808592,-1.72324323253608,-5.52571202918849,6.02198127219146,-0.282603309061854
5.43,-0.00993874128430802,-1.72417952991929,-5.30062559199158,6.10495354131508,0.506097657460246
5.46,-0.014486356471115,-1.72477470923867,-5.02740944557483,6.27314838985723,1.28266554421468
5.49,-0.0134393668215067,-1.72499009253071,-4.68587534034719,6.52415309439102,2.039317271199
5.52,-0.00672813096288176,-1.72456661486449,-4.25945593228028,6.85486235370368,2.76776567110991
5.55,-0.00461925639872142,-1.72329784880595,-3.73344165477964,7.26120185308879,3.46010540123173
5.58000000000001,-0.0118746946768996,-1.72095624538564,-3.09507107867397,7.73828891160003,4.10913603458404
5.61000000000001,-0.0244084299929875,-1.71758733304065,-2.33766074099335,8.28043248205122,4.70836205992163
5.64,-0.0319663094274417,-1.71344863336356,-1.46003318306659,8.88113315101618,5.25199288173441
5.67,-0.0409795080919279,-1.70843143530729,-0.471124106502892,9.53308313882928,5.73494282024795
5.7,-0.0632237835077696,-1.70224045127865,0.605669899635957,10.2283660120238,6.15285697594409
5.73,-0.0903645753179214,-1.6946283670523,1.74077778578143,10.9593088228396,6.50184573960735
5.76000000000001,-0.116061121187654,-1.6854419545827,2.90278056518197,11.7176487509303,6.77837881810077
5.79,-0.139410257549697,-1.67464504014881,4.06384709443365,12.4949520153577,6.97987848492659
5.82,-0.160120638680025,-1.66227171107651,5.19405236045723,13.282685190307,7.10475485794714
5.85,-0.186524387772385,-1.64855410776943,6.26518005084829,14.0722152050863,7.15240589938456
5.88,-0.218609641565751,-1.63384656079828,7.25112153461444,14.8548093441273,7.12321741582099
5.91,-0.256495227931848,-1.6183784799623,8.11952392567087,15.6216352469846,7.01856305819851
5.94,-0.292984449446624,-1.60228175170056,8.83790819222789,16.3648563263725,6.84035488086952
5.97000000000001,-0.325987251858555,-1.58590675456882,9.38078488997304,17.0770554543945,6.59089505845439
6,-0.353814217468114,-1.56988149556408,9.72690298885891,17.7504766293237,6.27340865048036
6.03,-0.371278066301996,-1.55473001021461,9.86321881715379,18.3781394122375,5.89179604548698
6.06,-0.383442362232386,-1.54074653325803,9.78656042650587,18.9538390217167,5.450632931119
6.09,-0.387768377497808,-1.52807609936735,9.50390447583433,19.472146333846,4.9551702941261
6.12,-0.387804174301283,-1.51669304155451,9.03115879408139,19.9284078822142,4.41133442036295
6.15000000000001,-0.387805585953499,-1.50659674570121,8.38760067712483,20.318747011139,3.82558855812074
