time,acc_sp,vel,theta,vel_hat,theta_hat
0.100000000000001,-2.54360400406889,0.535827909383651,9.39476327496282,0.535827909383651,9.39476327496282
0.130000000000003,-2.52562440845653,0.443921041625325,11.543271845414,1.77945376228667,11.4499448918604
0.160000000000004,-2.52416304690519,0.360597658862201,13.6135622754619,3.23186046386187,13.3675608461697
0.190000000000005,-2.53004647953806,0.285092675637569,15.4905584299922,4.8746493682386,15.1283223662109
0.220000000000006,-2.5341694347187,0.215920491680053,17.077946793595,6.68746314512709,16.7146506172525
0.25,-2.53094609195577,0.151342059773352,18.3150435470149,8.64867645149121,18.1110785821067
0.280000000000001,-2.51662630736522,0.0899296603237713,19.1816414083616,10.7358619502964,19.3045117247378
0.310000000000002,-2.49128121054164,0.0306441498529236,19.6905504973579,12.92520170289,20.2839846850165
0.340000000000003,-2.45553040838062,-0.0273780656998548,19.8756385577409,15.1911927604797,21.0404372362162
0.370000000000005,-2.41065372630236,-0.0848157204180943,19.7924645351994,17.5085148602564,21.5675400296849
0.400000000000006,-2.35978167345122,-0.141972602139658,19.5075989643829,19.8521258079694,21.8617389124839
0.43,-2.30693550543842,-0.198820495386168,19.0867747961015,22.197276189526,21.9222530793762
0.460000000000001,-2.25562443014751,-0.255163900753887,18.5913214558086,24.5189291067486,21.7506952737127
0.490000000000002,-2.20776165263401,-0.310688868388451,18.079230681299,26.790480321286,21.3504853436666
0.520000000000003,-2.16200723315894,-0.365076454603562,17.5978835659351,28.9864942748039,20.7273995105271
0.550000000000004,-2.11574548949702,-0.418043521645171,17.1854372685504,31.083249189121,19.8896633682526
0.580000000000005,-2.0731973673605,-0.469305080684072,16.8749516205397,33.0587370662087,18.8479518834707
0.610000000000007,-2.03743118504421,-0.518517558448835,16.6906655792826,34.8926636881915,17.6153893954783
0.640000000000001,-2.00834842052882,-0.56544635693328,16.6414783390623,36.566450872462,16.2075462903822
0.670000000000002,-1.98686172699178,-0.609914175194551,16.7228195871525,38.0638034024144,14.6407017311484
0.700000000000003,-1.97133022197463,-0.651786205229031,16.9201110106542,39.3686332777653,12.932638533369
0.730000000000004,-1.95823350477078,-0.691008224085087,17.2131422872651,40.4665478859589,11.1031650969536
0.760000000000005,-1.94226303971557,-0.727664188423399,17.5792257199417,41.3462524560368,9.17281463087651
0.790000000000006,-1.92495838979554,-0.761939262616379,17.9922948357398,41.9995500586386,7.16284515317586
0.82,-1.90986376065948,-0.793966698927292,18.419473932382,42.421341606001,5.09523949095464
0.850000000000001,-1.8996924150188,-0.823882382399275,18.8171736869685,42.609625851959,2.99270528037848
0.880000000000003,-1.89466937995801,-0.851930744749284,19.1333236058613,42.5649465601793,0.877720823278297
0.910000000000004,-1.88715456650469,-0.878509515752848,19.3137541948746,42.2883271622219,-1.22792778196934
0.940000000000005,-1.8733258790864,-0.904079553776993,19.3038306374424,41.7833485423252,-3.30033686931541
0.970000000000006,-1.85337567684223,-0.929159040189022,19.0543889158272,41.056245613036,-5.31686651374095
1,-1.82916622669361,-0.954329575898425,18.5232652912516,40.1158622394746,-7.25631227541102
1.03,-1.79964039097084,-0.980106851845745,17.6734592823792,38.9736512393336,-9.09890519967646
1.06,-1.7631173914458,-1.00687077524296,16.4766390989199,37.6436743828793,-10.8263118170712
1.09,-1.71952143536374,-1.03488453746495,14.9264014896922,36.142602392951,-12.4216341433139
1.12,-1.67195014237248,-1.06447916344119,13.0426354702162,34.4892792117605,-13.8694875629353
1.15000000000001,-1.62340104357098,-1.09599840949519,10.8696865092529,32.7006947302216,-15.1560249245194
1.18,-1.56901468610305,-1.12970176382421,8.47163316816987,30.7965850502644,-16.267894740047
1.21,-1.50600054989131,-1.1656747532191,5.92148548927523,28.7981051332327,-17.1940191166711
1.24,-1.43214000616331,-1.20379457859196,3.29590828984056,26.7270295085812,-17.9258823734457
1.27,-1.34714160055209,-1.24383272458113,0.67108810367122,24.6057522738737,-18.4575310413272
1.3,-1.25623795312488,-1.28551269736926,-1.87606908792663,22.4572870947832,-18.785573863174
1.33000000000001,-1.1684473638538,-1.32841925233258,-4.27104596754017,20.3052654753715,-18.9091815547784
1.36000000000001,-1.09376385717082,-1.37203017015381,-6.45035992791064,18.1718698629304,-18.8294274087583
1.39,-1.03416429851345,-1.41584197669929,-8.36430659195886,16.079182706195,-18.548403478085
1.42,-0.979271311493307,-1.45933554210312,-9.97383159262511,14.0496885150489,-18.0703071939846
1.45,-0.919437679571218,-1.50196547140336,-11.2490507209396,12.104368963566,-17.4015014331495
1.48,-0.85568913486967,-1.54335687540746,-12.1691253381353,10.2627028900094,-16.550514517738
1.51000000000001,-0.798367206678752,-1.58321776050984,-12.7166367884018,8.54266629683118,-15.5280402153748
1.54000000000001,-0.753958985704233,-1.6213772163594,-12.8826247778071,6.96073235067279,-14.3469377391501
1.57,-0.720719363722002,-1.65772484527932,-12.6798755047907,5.53187138236521,-13.0222317476208
1.6,-0.687095232153978,-1.69210820268997,-12.1445063575362,4.26901082242043,-11.5699415304143
1.63,-0.647148360128208,-1.72438163456287,-11.321728613592,3.18364805133466,-10.0054303563761
1.66,-0.603137670995393,-1.75454598482195,-10.259537528042,2.28708518006344,-8.34689133444098
1.69,-0.564789579583871,-1.7826239723245,-9.00766600453587,1.5878878259769,-6.61301336157804
1.72000000000001,-0.540133959409085,-1.80840814500714,-7.61157052417837,1.09179320143986,-4.82285303632342
1.75,-0.525599794642098,-1.8315911933947,-6.12471727035829,0.801710113811849,-2.99583465878086
1.78,-0.512329144177569,-1.85208519363231,-4.60676458265208,0.717718965446884,-1.15175023061998
1.81,-0.495220485439683,-1.86998584018485,-3.11630823490873,0.837165732435516,0.689293194994256
1.84,-0.481461565010879,-1.88554069291182,-1.70363581779991,1.15750835194613,2.50810751664032
1.87,-0.475476051244021,-1.89902378321757,-0.407489017346297,1.67398762017591,4.28499462609348
1.90000000000001,-0.473814289549329,-1.91067574232766,0.741939783947883,2.37913869860898,6.00083894281583
1.93,-0.47274477892666,-1.92066182061863,1.72137720020881,3.26367189010444,7.63779635508032
1.96,-0.467341288606397,-1.92912408919358,2.51723222556491,4.31647263889732,9.17929421997231
1.99,-0.459348726656467,-1.93621038019957,3.12282127638768,5.5246015305973,10.6100313633872
2.02,-0.454845353381065,-1.94216028865449,3.54244067764511,6.87366367516627,11.9162201649253
2.05,-0.451975817485855,-1.94705377565686,3.80156101347773,8.34803054301012,13.0849245745486
2.08000000000001,-0.44587881251874,-1.95080355375824,3.94479842708924,9.93031975532833,14.1038921937878
2.11000000000001,-0.4382451325299,-1.9532599096082,4.01986780736423,11.6024973112268,14.963037275853
2.14,-0.435337013482489,-1.95427143205163,4.06893253511428,13.3459136118239,15.6544784964343
2.17,-0.442288848374974,-1.95389599442654,4.12850460482438,15.1413034602523,16.1725389537023
2.2,-0.453194102867387,-1.95249762915401,4.23366830715196,16.9687860616563,16.5137461683069
2.23,-0.456317795750713,-1.95045785670125,4.4162897076002,18.8083351241083,16.6767673634807
2.26000000000001,-0.451548138188117,-1.94786604498319,4.70421108298285,20.641410189794,16.6613885211602
2.29000000000001,-0.449068158966443,-1.9446418869155,5.11198057962851,22.4470691254757,16.4686394528105
2.32,-0.45327301162692,-1.9408190803779,5.64200626670796,24.2051491420671,16.1015437686905
2.35,-0.461162717766229,-1.93642144672552,6.28899792086506,25.8968174262166,15.5651341648504
2.38,-0.467690174781403,-1.93131065614853,7.0362584679519,27.504571140304,14.8664524231324
2.41,-0.475056302042227,-1.9253810584002,7.85379785722395,29.0122374224426,14.0145494111703
2.44,-0.484475026644253,-1.91858565024461,8.70621709083877,30.4049733864789,13.0204850823895
2.47000000000001,-0.496436052876934,-1.91076024733808,9.55873013943215,31.6692879716076,11.8972150325554
2.5,-0.508371685994436,-1.90172609263956,10.3777168554122,32.7929414893675,10.6570421953983
2.53,-0.521407101462861,-1.89160469324881,11.1226441381893,33.7639183915438,9.31405650362428
2.56,-0.538597644496361,-1.88078504277096,11.7464672018302,34.5721155994319,7.88372803928698
2.59,-0.559243240993233,-1.86963485082581,12.2042061823953,35.2097476684629,6.38203992280598
2.62,-0.577586067490944,-1.858286997866,12.4548118108375,35.671346788204,4.82548831296715
2.65000000000001,-0.589485377281055,-1.84670761022653,12.4637011712673,35.9537627823581,3.23108240692261
2.68,-0.595313104558254,-1.83494210997352,12.207050742993,36.0561631087637,1.61634444019117
2.71,-0.595654006089135,-1.82334078525898,11.6716136216331,35.9798333097343,-0.00174025931426414
2.74,-0.593532406446472,-1.81251167297562,10.8511165107563,35.7267870804643,-1.60624243926916
2.77,-0.590364754619418,-1.80299351169927,9.74020770578928,35.3004095296639,-3.17897406651118
2.8,-0.584886229909597,-1.79516562509257,8.34379967942652,34.7060863263214,-4.70285817243658
2.83000000000001,-0.574709586522795,-1.78935601856409,6.68758259762678,33.9512062195453,-6.161962077053
2.86000000000001,-0.555890893958121,-1.78587898088981,4.82131899285128,33.0451610385635,-7.54149738897941
2.89,-0.530298533039796,-1.78493284014445,2.81355962979707,31.9993456927238,-8.82782000544588
2.92,-0.502502284267497,-1.78649646527622,0.737539915036676,30.8271581714933,-10.0084301122947
2.95,-0.474902540905245,-1.79054726430545,-1.34267313138017,29.5433660737429,-11.0720531351871
2.98,-0.443700967191677,-1.79698122214784,-3.37057634589478,28.1609179185221,-12.0084901014102
3.01000000000001,-0.403317532016708,-1.80546926773992,-5.29166632072498,26.6957378769564,-12.8080241598177
3.04000000000001,-0.35719978751254,-1.81540590133046,-7.05180143618109,25.1645052165398,-13.4627743071965
3.07,-0.308754949371638,-1.82621919313028,-8.60501924299234,23.5841035549941,-13.9668374116327
3.1,-0.26342326234167,-1.8375166289717,-9.91733510617278,21.9716208602679,-14.3162882125116
3.13,-0.222334528482235,-1.84896914408899,-10.9683742275061,20.3443494505382,-14.5091793205175
3.16,-0.189784766516311,-1.86031477367715,-11.7566955186781,18.7197763276298,-14.5455387024542
3.19,-0.165778307731373,-1.87126527964249,-12.2907767112785,17.1142301634771,-14.4266471547812
3.22000000000001,-0.148502579782475,-1.88157393650902,-12.5788161141681,15.544744041379,-14.1546451970798
3.25,-0.134380496366174,-1.89116281805002,-12.6261568092896,14.0284651014288,-13.7333799898729
3.28,-0.116975749641657,-1.90000793381015,-12.4398364822241,12.5813076234325,-13.168319600253
3.31,-0.0964497233995506,-1.90802348767033,-12.0440795833647,11.2179530269114,-12.4665530018829
3.34,-0.0764407800530645,-1.91510499371594,-11.4755119987503,9.9518498711002,-11.6367900749956
3.37,-0.061997996342054,-1.92123839298587,-10.7727017564447,8.79521385494774,-10.6893616063938
3.40000000000001,-0.0555054661112251,-1.92649701934595,-9.97483237749381,7.75902781711681,-9.63621928945055
3.43,-0.0533204903532583,-1.93094063865839,-9.12196639048929,6.85260618614908,-8.48939171732702
3.46,-0.0498010562727721,-1.93454347278011,-8.2526166342524,6.0847528040627,-7.26142157241105
3.49,-0.043986940995769,-1.93719102571199,-7.3982786791846,5.46326403068726,-5.96649562090676
3.52,-0.0380686837857423,-1.93877644780838,-6.58170466022431,4.99390693069459,-4.61906113942549
3.55,-0.0369322521149131,-1.93939109476597,-5.81995876896009,4.68041924613655,-3.23382585908806
3.58000000000001,-0.0394893816560289,-1.93917864799573,-5.12349949484125,4.524509396445,-1.82575796552478
3.61000000000001,-0.0431922798265845,-1.93833269873462,-4.49903752455049,4.52585647843181,-0.410086098875469
3.64,-0.0451095162695483,-1.93704855305187,-3.95017609754015,4.68226190587824,0.997921679675623
3.67,-0.0444069239899767,-1.93533801161764,-3.47625798820148,4.99107409569134,2.3839062274749
3.7,-0.040610130327207,-1.93318520840307,-3.07185062485579,5.44814963403223,3.73252755070079
3.73,-0.0369351307597095,-1.93054823828325,-2.72509251606599,6.04764557358548,5.02920254692138
3.76000000000001,-0.037050775578284,-1.92735517578434,-2.41989613705024,6.7821325289389,6.26043331881267
3.79,-0.0395851678461504,-1.92363054017348,-2.13516953858059,7.64259467658327,7.41380717415828
3.82,-0.0445170719134994,-1.91942348613632,-1.84229305889186,8.61842975491324,8.4779966258505
3.85,-0.0512223183624963,-1.9147017848215,-1.51382357746021,9.69744906422605,9.44275939188871
3.88,-0.0557568534607341,-1.90928849538847,-1.12190815352923,10.8673032237547,10.2991016863388
3.91,-0.0562410855883497,-1.9029663173728,-0.637384357488186,12.1152014146379,11.0384062222671
3.94,-0.0598014753029205,-1.89563288014869,-0.034529062576171,13.4268322099135,11.6531119964142
3.97000000000001,-0.0734401470425173,-1.88727271070829,0.703076077832096,14.7875378623104,12.1373994966542
4,-0.094778401790642,-1.87788969688955,1.5744663232131,16.1823143069492,12.4871907028513
4.03,-0.117808984468884,-1.86737148046983,2.56528785831588,17.5958111613433,12.7001490868604
4.06,-0.141491103349818,-1.85557852050712,3.65232718656487,19.012331725397,12.7756796125261
4.09,-0.16477949522418,-1.842471427229,4.80136366235272,20.4163752475015,12.714786465121
4.12,-0.189206016731721,-1.82808621705609,5.97032215032463,21.7942048646311,12.5190695318336
4.15000000000001,-0.217549656632373,-1.8126185435049,7.11457168072844,23.1303712531332,12.1914346825544
4.18,-0.246414845036326,-1.79636636031713,8.19224668803274,24.4102376640474,11.7362324948419
4.21,-0.272082698598432,-1.77961421895641,9.16397269057205,25.6203419975678,11.1592119241006
4.24,-0.29207739432348,-1.76264272410852,9.99207767472528,26.7483968030407,10.4675203035818
4.27,-0.31203252655667,-1.74572352085103,10.6436484427819,27.7832892789659,9.66970334438276
4.3,-0.332612821226286,-1.72912657397997,11.0901013072392,28.7150812729964,8.77570513544704
4.33000000000001,-0.355800249206901,-1.71311507801064,11.30655464178,29.5350835071759,7.79648269352081
4.36000000000001,-0.377773797546446,-1.69782818521052,11.273912856373,30.2355907890453,6.74246229685803
4.39,-0.395854512053058,-1.68331288626538,10.980924355342,30.8094170785622,5.62583648221278
4.42,-0.405981031043175,-1.6696986462955,10.4286043889763,31.2510587890462,4.45923531985901
4.45,-0.405195840436957,-1.65719674197361,9.6266965023281,31.556792561155,3.25549196239889
4.48,-0.399017595636111,-1.64606734315256,8.59225264684845,31.7246752628848,2.02764264476175
4.51000000000001,-0.392501893932752,-1.63664572166354,7.35100895637221,31.7545439895707,0.788926684204363
4.54,-0.386671698120163,-1.62917021249904,5.94046364474306,31.6480160098615,-0.447213655315687
4.57,-0.375011857326963,-1.62375259358486,4.40623141534539,31.4077782127156,-1.66813427641877
4.6,-0.351330035649086,-1.62053174630781,2.79933453294663,31.037129833593,-2.86085241996845
4.63,-0.318676163850668,-1.61956004499363,1.17493040261628,30.5408800904033,-4.01209796537963
4.66,-0.290316552889781,-1.62067839770052,-0.413463694068983,29.9251279292573,-5.10961390236
4.69,-0.274332250440759,-1.62361297676203,-1.91846765164943,29.1972620244669,-6.14215633091005
4.72000000000001,-0.265019171066535,-1.6279498969011,-3.30113958662893,28.365960778545,-7.09949446132305
4.75,-0.250032269114179,-1.63322897197971,-4.53317773670222,27.4411923222056,-7.9724106141849
4.78,-0.223188120459028,-1.63910031089116,-5.59766760163995,26.4342145143635,-8.7527002203749
4.81,-0.185601169281318,-1.64531036067513,-6.48534814645291,25.3565724410807,-9.43322552210838
4.84,-0.147743976118026,-1.65171907844788,-7.1931697271485,24.220025939044,-10.0072255900445
4.87,-0.119998436731902,-1.65822855637337,-7.72594651966882,23.037323100999,-10.4689227634481
4.90000000000001,-0.103314860554543,-1.66468731887698,-8.09549645373955,21.8212815605512,-10.8140666080815
4.93,-0.0962076219866226,-1.67097578373797,-8.31779437396522,20.5847877792154,-11.0399341223722
4.96,-0.0959465516319575,-1.67701774166109,-8.41003827440167,19.3407970464146,-11.1453297374125
4.99,-0.101710795460763,-1.68272950770141,-8.39109826716747,18.1023334794823,-11.1305853169594
5.02,-0.109035186002208,-1.68801165394559,-8.28000717414881,16.8822657196793,-10.9974565321744
5.05,-0.109118723255255,-1.69280741924985,-8.09783150541895,15.6925980189633,-10.7481187515829
5.08000000000001,-0.0973184025118427,-1.69713956176872,-7.86476134609307,14.5469906706088,-10.3859667047655
5.11000000000001,-0.0750606309473684,-1.70098174165598,-7.60197755739995,13.4582545954661,-9.91564803943287
5.14,-0.0533505242859903,-1.70428267387972,-7.33207394571417,12.4378856698926,-9.34295485863012
5.17,-0.0420826583807441,-1.7070976182946,-7.07193186450908,11.4960647257512,-8.67482372073566
5.2,-0.0421416255913049,-1.70958561433577,-6.8296243379701,10.6416575504123,-7.91933563946218
5.23,-0.0462794208539547,-1.71195982578867,-6.60554541698327,9.88221488675288,-7.08571608385619
5.26000000000001,-0.0455183128842046,-1.71431301643094,-6.39748937800799,9.22416347121928,-6.18379195673248
5.29,-0.0366585341183313,-1.71658600704666,-6.20410054132316,8.67411805128536,-5.22322128903114
5.32,-0.0241970672240603,-1.7187305982597,-6.02176143748186,8.23787337161575,-4.21512018810591
5.35,-0.0157590627739713,-1.72068479022816,-5.84237150890597,7.91959188837133,-3.17078347791764
5.38,-0.0106881072310338,-1.72232567696387,-5.65609883061769,7.72179907772149,-2.1016107055458
5.41,-0.00861110279349329,-1.72355533166382,-5.45068321678952,7.64538343584419,-1.01910614118867
5.44,-0.0114546130132444,-1.72437792302575,-5.20955354318595,7.68959647892606,0.0651212218366108
5.47000000000001,-0.0141373599212454,-1.72484650366935,-4.91356474383223,7.8520709927848,1.13937430904135
5.5,-0.0112022882019656,-1.72484893330864,-4.54373553765825,8.1302480692636,2.19279924919434
5.53,-0.00602517277482848,-1.72414369284497,-4.08411783978011,8.5205248858641,3.21402069699372
5.56,-0.00703773582478023,-1.72251731433251,-3.52065146274446,9.01769395032317,4.19180750515871
5.59,-0.0160526064489279,-1.71983327460398,-2.84260096611382,9.6155442595342,5.11586217148713
5.62,-0.0269277231378056,-1.71620776648162,-2.04511822168443,10.306861299547,5.97682083885515
5.65000000000001,-0.0349707089822716,-1.71177623401147,-1.13039682421189,11.083427045568,6.76625329521728
5.68,-0.0483942665638713,-1.70636777396441,-0.112192771123375,11.9360199619597,7.47666297360622
5.71,-0.072270714111151,-1.69970308986987,0.984039195017677,12.8544522862557,8.10149937144436
5.74,-0.0989300906078309,-1.69156622956243,2.12811204558152,13.8283061316775,8.63505211403156
5.77,-0.123844166641669,-1.68184298310474,3.2898027415992,14.8465241308523,9.07190885111901
5.8,-0.146313717926475,-1.67052059712471,4.44058218310837,15.8976864734473,9.40782022083672
5.83000000000001,-0.168921888377482,-1.65769917664082,5.5510949239211,16.9702244164254,9.6398842388768
5.86000000000001,-0.197219472370178,-1.64365159211238,6.59382721210385,18.0524202840455,9.76654629849352
5.89,-0.231238170354447,-1.62869053385295,7.54058899829987,19.1324074678616,9.78759917050327
5.92,-0.268658301770104,-1.61301290387505,8.35898534785651,20.1981704267245,9.7041830032846
5.95,-0.303985383583932,-1.59682341932331,9.01886709147626,21.23824754313,9.51852072909184
5.98,-0.335262907061742,-1.58056500156724,9.49615758960168,22.2426275986323,9.23314730154705
6.01000000000001,-0.359635500412744,-1.56483100044759,9.77234159829057,23.2003140041015,8.8518400924174
6.04,-0.375332831612125,-1.55006885122909,9.83766602027117,24.1011937206111,8.37936450475444
6.07,-0.38488436732086,-1.53652305529447,9.69234177628206,24.9361563792626,7.82144215189115
6.1,-0.387780309765633,-1.52428174676307,9.34632258191674,25.697094281184,7.18475085744263
6.13,-0.387804644852022,-1.51332760960341,8.8166394217626,26.3769023975304,6.47692465530564
6.16,-0.387631034937098,-1.50369168519428,8.12533827821846,26.9694780738888,5.70655086901969
6.19,-0.387851129515108,-1.49545521665616,7.30086670898628,27.4694073871681,4.88217651551698
