time,vel,theta,acc_sp,vel_sp
0,-1.86513832249423,0.5144723291616,0.221734387580683,-1.5
0.0600000000000023,-1.83685671471418,0.469079435146927,0.179829017431953,-1.5
0.120000000000005,-1.81048307276872,0.421851882892926,0.148309207455188,-1.5
0.180000000000007,-1.78169502971072,0.337720454809886,0.111458563028103,-1.5
0.239999999999995,-1.74744551400709,0.253309769596107,0.0692035572285323,-1.5
0.299999999999997,-1.71742129721214,0.154962171558087,0.0344342481061757,-1.5
0.359999999999999,-1.6891115064817,0.0453397078378867,0.00622192747500838,-1.5
0.420000000000002,-1.662805884128,-0.0473967714573486,-0.0176290220806687,-1.5
0.480000000000004,-1.63968031011345,-0.141602594824489,-0.0324856436321755,-1.5
0.540000000000006,-1.62009123394926,-0.225970002699028,-0.0390624827908226,-1.5
0.599999999999994,-1.60285713680616,-0.304303156434971,-0.0466686261920346,-1.5
0.659999999999997,-1.59041022287476,-0.364853109379045,-0.0431364857001799,-1.5
0.719999999999999,-1.58088622847306,-0.411922440985594,-0.0362609830373831,-1.5
0.780000000000001,-1.57493990228714,-0.438810809407817,-0.0235112551285577,-1.5
0.840000000000003,-1.57401184245329,-0.44884975672471,0.0023475896066032,-1.5
0.900000000000006,-1.57669753697185,-0.441836615690229,0.0307740078042198,-1.5
0.959999999999994,-1.58180069953954,-0.413077356346558,0.0565989112496461,-1.5
1.02,-1.58899054411633,-0.372221584581048,0.0833320435440464,-1.5
1.08,-1.59778322619357,-0.32118532402781,0.110591900845731,-1.5
1.14,-1.6076210584867,-0.256289656852656,0.137347838176814,-1.5
1.2,-1.61839304869769,-0.171540390020478,0.165816021014827,-1.5
1.26000000000001,-1.62818091857795,-0.0868852816743695,0.183617851005496,-1.5
1.31999999999999,-1.63590169063195,-0.0138185792545762,0.194340893768664,-1.5
1.38,-1.64288434500741,0.0643046150732826,0.206426344490597,-1.5
1.44,-1.64820712982654,0.151332184712838,0.214041548066607,-1.5
1.5,-1.65156693114286,0.224933874020258,0.216753958404298,-1.5
1.56,-1.6523324709913,0.282222922976959,0.212805321953735,-1.5
1.62,-1.64995898681687,0.333177971293681,0.201195864648923,-1.5
1.68000000000001,-1.64348339447889,0.36496549385642,0.178284316924485,-1.5
1.73999999999999,-1.63373356163435,0.387137090879821,0.151485012312262,-1.5
1.8,-1.62185989220556,0.390618851585052,0.126973655911667,-1.5
1.86,-1.60753012800269,0.379157863815424,0.0964377431688391,-1.5
1.92,-1.59226695310794,0.353163596733186,0.0710416341884756,-1.5
1.98,-1.57592932563277,0.318716334708197,0.0387645348760753,-1.5
2.04000000000001,-1.55680023952748,0.265541602838403,0.00707948960046101,-1.5
2.09999999999999,-1.53738142331724,0.209800085726391,-0.0277786211285129,-1.5
2.16,-1.51945107496214,0.138510801317723,-0.050089898231054,-1.5
2.22,-1.502526682513,0.0712587465060953,-0.0712816066465701,-1.5
2.28,-1.48647752100766,-3.60055404948663e-05,-0.091246167552676,-1.5
2.34,-1.4723421624576,-0.0671619910545202,-0.106921042758207,-1.5
2.40000000000001,-1.46070569334776,-0.131526924693164,-0.114605967861308,-1.5
2.45999999999999,-1.45221004016871,-0.185276701712563,-0.121215694049051,-1.5
2.52,-1.4447116382805,-0.238916069365192,-0.118457853867782,-1.5
2.58,-1.44060851561505,-0.278853100067071,-0.11498403697327,-1.5
2.64,-1.43909603162783,-0.306426879765615,-0.107298921681303,-1.5
2.7,-1.44096674995536,-0.319331406149947,-0.0909392731022821,-1.5
2.76000000000001,-1.4455279871428,-0.320223841560811,-0.0723470769285497,-1.5
2.81999999999999,-1.45258378112291,-0.30904860559194,-0.0503538779419012,-1.5
2.88,-1.46099649714448,-0.280078659065203,-0.0305981290244122,-1.5
2.94,-1.47042333913584,-0.247101398879306,-0.00628305131338558,-1.5
3,-1.48135688607539,-0.204875677354222,0.0144992743174588,-1.5
3.06,-1.49308518207135,-0.152879506359536,0.0337928768802382,-1.5
3.12,-1.50421258126519,-0.0987053015211465,0.0517182122359973,-1.5
3.17999999999999,-1.514210531871,-0.03491338880823,0.0622256420780751,-1.5
3.23999999999999,-1.52354145849303,0.0291959357850877,0.0755845216761725,-1.5
3.3,-1.53044907731438,0.0764810869601644,0.0762399661267162,-1.5
3.36,-1.53643474902035,0.136120828734572,0.0822554831678115,-1.5
3.42,-1.54027315663982,0.18340673290232,0.0809655218125078,-1.5
3.48,-1.54240669056819,0.21670837117828,0.0772738836122591,-1.5
3.54000000000001,-1.54286631881835,0.248626463432525,0.0694989403085196,-1.5
3.59999999999999,-1.54123742921375,0.269663771024331,0.0597521109818924,-1.5
3.66,-1.53578987591121,0.275625955915008,0.0354765952674886,-1.5
3.72,-1.52830153651798,0.27300004811966,0.0132701938786982,-1.5
3.78,-1.51973580188746,0.259685065654381,-0.00624370929080925,-1.5
3.84,-1.51001594741311,0.235339569739133,-0.0268085519476278,-1.5
3.90000000000001,-1.49972348158178,0.205743535544822,-0.0470953250887549,-1.5
3.95999999999999,-1.48999145131759,0.165996358995656,-0.0603542538257696,-1.5
4.02,-1.48016918616303,0.118459634607037,-0.0771971810690387,-1.5
4.08,-1.46884710067678,0.0692273654430975,-0.103627344294448,-1.5
4.14,-1.45633195859881,0.0120898055261998,-0.125810067655486,-1.5
4.2,-1.44784852695116,-0.0319020756709716,-0.131762731684185,-1.5
4.26000000000001,-1.44129758197449,-0.077358748540119,-0.133885862660438,-1.5
4.32000000000001,-1.43614498861378,-0.12123840991909,-0.136268884819324,-1.5
4.38,-1.43275005010677,-0.157185591061708,-0.136050236866029,-1.5
4.44,-1.43095286665244,-0.186238808816453,-0.133334586236182,-1.5
4.5,-1.42990848873565,-0.210033872425342,-0.133088123929591,-1.5
4.56,-1.43036995309732,-0.224487468793653,-0.128204331032169,-1.5
4.62,-1.43346731773854,-0.227884156923907,-0.115929498593547,-1.5
4.67999999999999,-1.43959400769186,-0.222432067387675,-0.0942021342949452,-1.5
4.73999999999999,-1.4473693828717,-0.20765047797309,-0.0739121048394203,-1.5
4.8,-1.45603943464893,-0.186549993679512,-0.0571649328519163,-1.5
4.86,-1.46515832252522,-0.154036533154726,-0.0413198560437598,-1.5
4.92,-1.47428122330359,-0.12025926752174,-0.0273995735210977,-1.5
4.98,-1.48322196060501,-0.0875689499821376,-0.0148716529618725,-1.5
5.04000000000001,-1.49203079582933,-0.0435216121139822,-0.00139997542819348,-1.5
5.09999999999999,-1.50035154553251,-0.00445960780700487,0.00884408864490233,-1.5
5.16,-1.5084858020516,0.0414229456671573,0.0206085419186505,-1.5
5.22,-1.51578272523654,0.0752114906133684,0.0291786271130922,-1.5
5.28,-1.51997935582249,0.112639626228615,0.0232339768264732,-1.5
5.34,-1.52129473663875,0.140869594189713,0.0124676411055777,-1.5
5.40000000000001,-1.52231053687984,0.163735158784094,0.0110393057066209,-1.5
5.45999999999999,-1.52276025799824,0.179456587272273,0.00898799196978234,-1.5
5.52,-1.52273343707582,0.189474906626195,0.00704381622032801,-1.5
5.58,-1.52133335473694,0.191003548654382,8.0551351367808e-05,-1.5
5.64,-1.51744343115597,0.184383193088346,-0.0166842878535898,-1.5
5.7,-1.5105728895495,0.168841361715117,-0.0413509349039171,-1.5
5.76000000000001,-1.50345411091134,0.147560013021536,-0.0556046521853293,-1.5
5.81999999999999,-1.49703233779031,0.121191615025475,-0.0640129097958924,-1.5
5.88,-1.49077591961523,0.0959158969578811,-0.0734830048827038,-1.5
5.94,-1.48503007825146,0.0612905507966156,-0.081051771421025,-1.5
6,-1.47925939026927,0.0256036121705771,-0.0911059148521852,-1.5
6.06,-1.47296147544488,-0.00783305024159994,-0.103068844972779,-1.5
6.12,-1.46632845033159,-0.0459449475676563,-0.116711370378674,-1.5
6.17999999999999,-1.46252786526294,-0.0793738596730626,-0.113516252378838,-1.5
6.23999999999999,-1.4604627871095,-0.101448582751636,-0.109868287673512,-1.5
6.3,-1.46002122749519,-0.124583818452573,-0.104014483468723,-1.5
6.36,-1.4609503703502,-0.143110322418263,-0.0968046001000096,-1.5
6.42,-1.46274242103792,-0.156451497789723,-0.0906317757278605,-1.5
6.48,-1.46416527140374,-0.16142372735132,-0.090851332015933,-1.5
6.54000000000001,-1.46637920747119,-0.160239527093928,-0.0853111704343026,-1.5
6.59999999999999,-1.47116683203504,-0.153015177543686,-0.067968014114501,-1.5
6.66,-1.47650909529014,-0.139783429249359,-0.0566087121293968,-1.5
6.72,-1.4825790498186,-0.117548186336637,-0.0433863595427654,-1.5
6.78,-1.48914401855045,-0.0975332724495832,-0.0321460237061759,-1.5
6.84,-1.49587376365673,-0.0731411516256945,-0.0173327302538467,-1.5
6.90000000000001,-1.50225711014467,-0.0376559504750284,-0.0148962439386104,-1.5
6.95999999999999,-1.50758856916196,-0.00892914987904467,-0.00599916250310906,-1.5
7.02,-1.51299884493344,0.019163860784628,0.0055996666447376,-1.5
7.08,-1.5189126721836,0.0492553727146878,0.0134524627989983,-1.5
7.14,-1.52419360825646,0.0715198160225417,0.0210522783803304,-1.5
7.2,-1.52793285239977,0.0945989488526874,0.0218110696733211,-1.5
7.26000000000001,-1.52845403606536,0.112211179474016,0.0100213070383636,-1.5
7.31999999999999,-1.52632194044709,0.123789585350175,-0.005031268278192,-1.5
7.38,-1.52381660935164,0.131746849459739,-0.0131362879427637,-1.5
7.44,-1.52195759279601,0.134704660108322,-0.0133136915423201,-1.5
7.5,-1.51917321347256,0.132663661946121,-0.0195040604241775,-1.5
7.56,-1.51549094113716,0.125612013821497,-0.0300953511822318,-1.5
7.62,-1.51176015966267,0.111489150100234,-0.0378448784216351,-1.5
7.67999999999999,-1.5054511370101,0.0952553066572645,-0.0561842145707471,-1.5
7.73999999999999,-1.4991737581144,0.0758491591760256,-0.0668001380537288,-1.5
7.8,-1.49360961755917,0.0533748141003663,-0.0751321386020248,-1.5
7.86,-1.48988317392567,0.0283394883512713,-0.0735673585349413,-1.5
7.92,-1.48629014069375,0.00829530941305825,-0.0769553916559952,-1.5
7.98,-1.48325595735962,-0.0159182349677181,-0.0797835910714567,-1.5
8.04000000000001,-1.48044438717799,-0.0428830372884063,-0.0830284706917345,-1.5
8.09999999999999,-1.47710577684933,-0.063034939410689,-0.0922552551271079,-1.5
8.16,-1.47492257591353,-0.080975688610255,-0.0921070562957634,-1.5
8.22,-1.47495325971498,-0.0944498134918293,-0.0833647393255831,-1.5
8.28,-1.47573695482162,-0.106545157060967,-0.0792350681939662,-1.5
8.34,-1.47761927310134,-0.111750037357155,-0.0698663052741172,-1.5
8.40000000000001,-1.48107336401036,-0.113016414257159,-0.0594680727277929,-1.5
8.45999999999999,-1.48426842984294,-0.109939943613505,-0.0535204991177118,-1.5
8.52,-1.48707022570161,-0.102143861168509,-0.0514587988581002,-1.5
8.58,-1.49127205395444,-0.0906133647394544,-0.0405895666530868,-1.5
8.64,-1.49586358986786,-0.0763650320256172,-0.0300192259868997,-1.5
8.7,-1.50126907002702,-0.0590608126326426,-0.0184231506875857,-1.5
8.76000000000001,-1.50681152172973,-0.0421582631608851,-0.00823788038343298,-1.5
8.82000000000001,-1.51222800191711,-0.0191058598478594,0.000378798252191115,-1.5
8.88,-1.5154546330961,-7.8088827187123e-05,-0.00257546788269114,-1.5
8.94,-1.51767908468195,0.0210711945060678,-0.0037976619334128,-1.5
9,-1.51993113142185,0.0414586839377115,-0.000878568266709956,-1.5
9.06,-1.52309119736983,0.0590819802417312,0.00848455971599521,-1.5
9.12,-1.52539170408155,0.0711230198777027,0.0103329585107081,-1.5
9.17999999999999,-1.52685879840315,0.0836443056007117,0.0100133543351651,-1.5
9.23999999999999,-1.52665926183276,0.0907263312094043,0.00408282661838982,-1.5
9.3,-1.52365999730725,0.0944499325887888,-0.0136018645424858,-1.5
9.36,-1.52062832384398,0.0946087614976381,-0.0180604381669297,-1.5
9.42,-1.51808099829254,0.0908058416047179,-0.0214839611048444,-1.5
9.48,-1.51548635723432,0.0850477960327021,-0.0245977035656132,-1.5
9.54000000000001,-1.51265069467628,0.0742149919178327,-0.0293812230989736,-1.5
9.59999999999999,-1.50885745514854,0.0623295806978555,-0.0392109300811379,-1.5
9.66,-1.50467269120759,0.0488428946800892,-0.0475653772832106,-1.5
9.72,-1.5005204711276,0.0310649937851097,-0.0546363816018776,-1.5
9.78,-1.49690383760804,0.0126732458713409,-0.0583464269927458,-1.5
9.84,-1.49371761855624,-0.00374948506195154,-0.0613676670502647,-1.5
9.90000000000001,-1.49121121558189,-0.019855248985641,-0.0625591862798895,-1.5
9.95999999999999,-1.48991049906209,-0.0350709813073285,-0.0603468033333023,-1.5
10.02,-1.48920942454141,-0.048322084286175,-0.0581900660896465,-1.5
10.08,-1.48672543431374,-0.060729903473324,-0.0684741827543234,-1.5
10.14,-1.484364658547,-0.0707846039726188,-0.0736668993841207,-1.5
10.2,-1.48398412849108,-0.0752949821860182,-0.0679416644511847,-1.5
10.26,-1.48635993267593,-0.0773889455015836,-0.0516162487978162,-1.5
10.32,-1.48925933863219,-0.0765707884194185,-0.0431680187599058,-1.5
10.38,-1.49206590446818,-0.0731985046074414,-0.0384637288125057,-1.5
10.44,-1.49458015521325,-0.0666309432461713,-0.0350847357496302,-1.5
10.5,-1.49648784320343,-0.0583681199369494,-0.0357016803132873,-1.5
10.56,-1.49915178353927,-0.047233812213281,-0.028464875307871,-1.5
10.62,-1.50282112390288,-0.0347880777832923,-0.0194827769596584,-1.5
10.68,-1.50684389758212,-0.0213611012487699,-0.0106124232222507,-1.5
10.74,-1.50996926399995,-0.00712673147370034,-0.00725771896591854,-1.5
10.8,-1.51260106135811,0.00787198977720338,-0.00536649654318055,-1.5
10.86,-1.51479323506169,0.0195232312494395,-0.00321304256329136,-1.5
10.92,-1.51534856708963,0.0335156680071499,-0.0091416579705591,-1.5
10.98,-1.51577975009927,0.0443930464822007,-0.00954270206227437,-1.5
11.04,-1.51628861115658,0.0533416181865666,-0.00779842867611991,-1.5
11.1,-1.51679416671609,0.0602004614292573,-0.00750769417211616,-1.5
11.16,-1.51762678901588,0.0647907988863948,-0.00308383850022842,-1.5
11.22,-1.51742381341415,0.0664040679543132,-0.00666726153856606,-1.5
11.28,-1.51544000201085,0.0653470430335701,-0.017729185381913,-1.5
11.34,-1.5132140455707,0.0615719419444648,-0.0229267328202591,-1.5
11.4,-1.51150147648774,0.055493703735438,-0.0237475427721806,-1.5
11.46,-1.50967987873522,0.0472669311769751,-0.0255207294639583,-1.5
11.52,-1.50770164791612,0.0377376428983861,-0.029685888896137,-1.5
11.58,-1.50588268212262,0.0268701055177941,-0.0319122437271732,-1.5
11.64,-1.50473242460123,0.015403555961814,-0.0308561508801909,-1.5
11.7,-1.50291071586049,0.00212151991624087,-0.0358906213223585,-1.5
11.76,-1.50060184559317,-0.00973350904025247,-0.040933100690202,-1.5
11.82,-1.49910008627764,-0.0213678846613604,-0.0405485509306141,-1.5
11.88,-1.49863163450016,-0.0311221963250537,-0.0369070745565347,-1.5
11.94,-1.49779509932353,-0.0405146900671549,-0.0389430650737477,-1.5
12,-1.49723870339175,-0.0473859655452942,-0.0389389421477114,-1.5
12.06,-1.49795591316408,-0.0526115068306221,-0.0331574889208632,-1.5
12.12,-1.50001285053461,-0.0553447635758839,-0.022188213588633,-1.5
12.18,-1.50221251421744,-0.0563549853811843,-0.0173487591460478,-1.5
12.24,-1.5047355270764,-0.0554948894650443,-0.0114732391285816,-1.5
12.3,-1.5075563054675,-0.0528945542108779,-0.00577614945926169,-1.5
12.36,-1.51019012706151,-0.0481625536462778,-0.000834003577435627,-1.5
12.42,-1.51249298964583,-0.0415504985886944,0.00215892684619945,-1.5
12.48,-1.51431786012136,-0.0336728691222656,0.00236501763523744,-1.5
12.54,-1.51686523652966,-0.0242005485947983,0.0102019878424148,-1.5
12.6,-1.51863874659041,-0.0145764943687842,0.0114878593963982,-1.5
12.66,-1.52029852571329,-0.00477554510714493,0.0141664561752416,-1.5
12.72,-1.52189632089755,0.00613389943843599,0.0163451157328365,-1.5
12.78,-1.52315368668866,0.0159155016919899,0.0183529705869927,-1.5
12.84,-1.52355167711156,0.0249114667578575,0.0162357662563316,-1.5
12.9,-1.52402259801993,0.0316729183752828,0.0167970315150078,-1.5
12.96,-1.52438234038034,0.0390268009488681,0.0182524299024306,-1.5
13.02,-1.52413382687047,0.0434560796619809,0.0171976530867876,-1.5
13.08,-1.52221215331747,0.0462875602597106,0.00778641376239592,-1.5
13.14,-1.52123889210624,0.0472509368194266,0.00973016459377718,-1.5
13.2,-1.52023439274134,0.0469449742051854,0.0085669901546212,-1.5
13.26,-1.51779915001948,0.0444659401436995,0.00100267784818181,-1.5
13.32,-1.51484746044924,0.0405302354570099,-0.00669031770768835,-1.5
13.38,-1.51283397314423,0.0344657589727537,0.0233083201305911,-1.5
13.44,-1.51137063434888,0.0287634020411252,0.799315545641276,-0.986440002918243
13.5,-1.50081671286583,0.0143818687018487,0.792183142783825,-0.986440002918243
13.56,-1.45299472232999,-0.0349459125857118,0.587233218895606,-0.986440002918243
13.62,-1.39664580896387,-0.0873139137844421,0.449117721813312,-0.986440002918243
13.68,-1.34992808763313,-0.142759892319375,0.416969232001881,-0.986440002918243
13.74,-1.31587791392851,-0.171375463655642,0.428022641715291,-0.986440002918243
13.8,-1.28728784697219,-0.188693427411918,0.429744027182813,-0.986440002918243
13.86,-1.26018372270369,-0.200096863769633,0.416836655198294,-0.986440002918243
13.92,-1.23396195094,-0.204010881331605,0.395376529475792,-0.986440002918243
13.98,-1.21020515649509,-0.199288419517487,0.380357027750946,-0.986440002918243
14.04,-1.1904973589123,-0.183226946307862,0.378333028056801,-0.986440002918243
14.1,-1.17353060425341,-0.156712555057456,0.375293658763329,-0.986440002918243
14.16,-1.15807466659984,-0.128738033885691,0.368015686718825,-0.986440002918243
14.22,-1.14401445649582,-0.0932213966315708,0.362205536057036,-0.986440002918243
14.28,-1.13146346500634,-0.0485031067211343,0.356678411622404,-0.986440002918243
14.34,-1.11990674773413,-0.00714058592322139,0.35296856069876,-0.986440002918243
14.4,-1.10922659814602,0.0414890451304258,0.345368186224012,-0.986440002918243
14.46,-1.09808469737278,0.082549247163781,0.331490450285959,-0.986440002918243
14.52,-1.08722825603798,0.123442021755434,0.319409170065673,-0.986440002918243
14.58,-1.07561169480969,0.154169074275942,0.305246614888028,-0.986440002918243
14.64,-1.0638474057969,0.186430703991231,0.286413435933954,-0.986440002918243
14.7,-1.04989197408116,0.21107054940151,0.262097451172598,-0.986440002918243
14.76,-1.03611345845372,0.225716748954318,0.240191262589092,-0.986440002918243
14.82,-1.02010155664832,0.233529786853411,0.211635617502118,-0.986440002918243
14.88,-1.00502217990236,0.232155039417865,0.1852752296314,-0.986440002918243
14.94,-0.990554215899293,0.223008700147506,0.166201549428724,-0.986440002918243
15,-0.976237910606214,0.206350719705379,0.146306927376242,-0.986440002918243
15.06,-0.961585030443129,0.178693421933325,0.120702332663632,-0.986440002918243
15.12,-0.946639766402226,0.153488272651991,0.0923871278815346,-0.986440002918243
15.18,-0.930857961692661,0.114887043294628,0.0655638330748478,-0.986440002918243
15.24,-0.915843059442929,0.0753335805214929,0.0387946645715832,-0.986440002918243
15.3,-0.902219155679748,0.0377584692817355,0.0193922107042844,-0.986440002918243
15.36,-0.890552116390568,-0.00663106290508886,0.00529546737653974,-0.986440002918243
15.42,-0.880911067974076,-0.0415839986762474,-0.00522102435079558,-0.986440002918243
15.48,-0.872762244631786,-0.0764529151326749,-0.0134102794950156,-0.986440002918243
15.54,-0.866087857231509,-0.107618115372057,-0.0222655962864757,-0.986440002918243
15.6,-0.861111006557774,-0.132193891221014,-0.0277869595564421,-0.986440002918243
15.66,-0.858483748238533,-0.151491274346115,-0.0271441344183455,-0.986440002918243
15.72,-0.858287662935532,-0.164182750378617,-0.0208104514950744,-0.986440002918243
15.78,-0.859247753017806,-0.169530569104435,-0.0181289689934279,-0.986440002918243
15.84,-0.862007272363496,-0.16883643737364,-0.0103282975732306,-0.986440002918243
15.9,-0.865607539426922,-0.158956850869112,-0.00624869653382465,-0.986440002918243
15.96,-0.870352320666115,-0.144755490266222,0.00188194309661882,-0.986440002918243
16.02,-0.876149939151034,-0.124716832251673,0.0105933176083142,-0.986440002918243
16.08,-0.882789569475408,-0.0967495348586825,0.0210701916022636,-0.986440002918243
16.14,-0.889414815936359,-0.0692272130030743,0.0275762191285339,-0.986440002918243
16.2,-0.895306695408124,-0.035127407871473,0.0295690537676135,-0.986440002918243
16.26,-0.90113004225818,-0.00107119811299783,0.0347849645494702,-0.986440002918243
16.32,-0.906459648342248,0.0271261813335105,0.0358713635400688,-0.986440002918243
16.38,-0.911219804209237,0.0627426643589774,0.0384692237595297,-0.986440002918243
16.44,-0.916081462658372,0.0899491499641261,0.0408448715082918,-0.986440002918243
16.5,-0.919746339236018,0.113367896258391,0.0387866039028832,-0.986440002918243
